V_G	I_DS (A)	I_DS Error (A)	I_G (A)	I_G Error (A)
-0.9	-4.113491E-3	4.672263E-4	-5.139102E-6	5.432324E-7
-0.875	-2.351962E-3	1.855524E-6	-6.373389E-6	7.205190E-9
-0.85	-2.039028E-3	5.508112E-7	-6.365149E-6	4.808477E-9
-0.825	-1.761739E-3	5.267973E-7	-6.239821E-6	6.455405E-9
-0.8	-1.493948E-3	3.674351E-7	-6.271717E-6	6.251502E-9
-0.775	-1.238913E-3	2.511246E-7	-6.025944E-6	3.784298E-9
-0.75	-9.969958E-4	3.846283E-7	-5.937486E-6	9.904236E-9
-0.725	-7.709253E-4	2.481866E-7	-5.837480E-6	4.971833E-9
-0.7	-5.650795E-4	4.991697E-7	-5.768729E-6	2.541817E-9
-0.675	-3.843032E-4	4.401665E-7	-5.649936E-6	9.063733E-9
-0.65	-2.363832E-4	4.546541E-7	-5.424073E-6	2.288402E-9
-0.625	-1.271286E-4	3.481211E-7	-5.222638E-6	2.713275E-9
-0.6	-5.810688E-5	2.930647E-7	-5.175867E-6	4.662124E-9
-0.575	-2.381089E-5	1.855707E-7	-4.998304E-6	9.523987E-9
-0.55	-1.057362E-5	1.022942E-7	-4.853434E-6	8.099937E-10
-0.525	-5.965559E-6	6.359672E-8	-4.658550E-6	1.979947E-9
-0.5	-4.060419E-6	3.629539E-8	-4.525051E-6	6.593657E-9
-0.475	-2.989319E-6	2.473165E-8	-4.346221E-6	6.910752E-9
-0.45	-2.295421E-6	1.952103E-8	-4.181147E-6	2.867831E-9
-0.425	-1.814537E-6	1.437600E-8	-4.040651E-6	4.543005E-9
-0.4	-1.435341E-6	1.185351E-8	-3.863544E-6	3.636469E-9
-0.375	-1.190031E-6	1.217998E-8	-3.801868E-6	1.011141E-8
-0.35	-1.001603E-6	7.536402E-9	-3.531261E-6	5.809534E-9
-0.325	-8.667693E-7	5.375315E-9	-3.378206E-6	4.167826E-9
-0.3	-7.783852E-7	7.627886E-9	-3.289954E-6	1.359977E-8
-0.275	-6.950086E-7	3.866699E-9	-3.106311E-6	7.373185E-9
-0.25	-6.329140E-7	2.934594E-9	-2.916335E-6	2.074340E-9
-0.225	-6.101269E-7	2.761772E-9	-2.868430E-6	3.371548E-9
-0.2	-6.117166E-7	3.287466E-9	-2.822877E-6	5.092988E-9
-0.175	-5.844875E-7	3.856639E-9	-2.637688E-6	1.072478E-8
-0.15	-5.771605E-7	3.489570E-9	-2.504971E-6	7.764943E-9
-0.125	-5.523795E-7	9.358470E-9	-2.261597E-6	2.636927E-8
-0.1	-5.550357E-7	2.028746E-9	-2.023137E-6	1.741707E-9
-0.075	-5.808019E-7	2.009167E-9	-1.873274E-6	3.021407E-9
-0.05	-6.091161E-7	1.279420E-9	-1.712486E-6	1.996176E-9
-0.025	-6.451443E-7	1.636842E-9	-1.559746E-6	1.382292E-9
0	-6.864246E-7	1.222832E-9	-1.416991E-6	3.983623E-9
-0.025	-5.846676E-7	5.999004E-10	-1.592305E-6	3.073942E-9
-0.05	-4.964541E-7	2.129753E-8	-1.763491E-6	8.485456E-8
-0.075	-3.970952E-7	8.995656E-10	-1.861065E-6	1.996475E-9
-0.1	-3.205528E-7	5.801449E-10	-2.018812E-6	2.253731E-9
-0.125	-2.528733E-7	8.188382E-10	-2.194330E-6	3.340741E-9
-0.15	-1.795804E-7	5.541935E-10	-2.309163E-6	2.399706E-9
-0.175	-1.198647E-7	1.964476E-8	-2.456804E-6	6.814867E-8
-0.2	-4.295900E-8	5.043258E-10	-2.509428E-6	1.560725E-9
-0.225	1.452906E-8	1.074512E-9	-2.642648E-6	5.980713E-9
-0.25	7.507543E-8	4.062726E-10	-2.750489E-6	7.227299E-10
-0.275	1.302409E-7	4.389246E-10	-2.876206E-6	3.771360E-9
-0.3	1.905786E-7	2.564828E-9	-2.939688E-6	1.249296E-8
-0.325	2.341727E-7	2.714780E-9	-3.114565E-6	2.008235E-8
-0.35	2.801951E-7	6.400691E-10	-3.223741E-6	4.149966E-9
-0.375	3.276880E-7	9.531071E-10	-3.314960E-6	7.679156E-9
-0.4	3.695630E-7	1.302305E-9	-3.451548E-6	4.158282E-8
-0.425	4.025810E-7	1.408420E-9	-3.533211E-6	1.142727E-8
-0.45	4.360200E-7	2.515714E-9	-3.616497E-6	8.017863E-9
-0.475	3.980851E-7	1.193798E-9	-3.937772E-6	1.544138E-8
-0.5	4.360878E-7	2.677831E-9	-3.859990E-6	1.997325E-8
-0.525	2.864308E-7	1.480023E-9	-3.934403E-6	1.585565E-8
-0.55	-7.952522E-7	1.777021E-8	-4.158397E-6	1.642446E-8
-0.575	-4.445714E-5	5.809080E-5	-3.998698E-6	3.000639E-7
-0.6	-1.298017E-4	1.620687E-4	-4.023792E-6	1.812313E-7
-0.625	-7.989158E-5	2.367836E-7	-4.408649E-6	7.772854E-9
-0.65	-5.138875E-4	5.781997E-4	-4.144481E-6	3.560179E-7
-0.675	-3.119408E-4	4.315215E-7	-4.830832E-6	1.967196E-8
-0.7	-4.861465E-4	3.099018E-7	-5.061929E-6	7.833071E-9
-0.725	-6.905316E-4	3.906208E-7	-5.073716E-6	8.392225E-9
-0.75	-9.175919E-4	5.578370E-7	-4.993926E-6	1.515517E-8
-0.775	-1.737395E-3	8.252116E-4	-4.989610E-6	3.019354E-7
-0.8	-1.402340E-3	4.004294E-7	-5.569969E-6	4.451266E-9
-0.825	-1.664840E-3	4.065348E-7	-5.685760E-6	1.059270E-8
-0.85	-1.944486E-3	2.788139E-7	-5.922731E-6	3.632953E-9
-0.875	-2.226867E-3	6.515307E-7	-6.069883E-6	6.746386E-9
-0.9	-2.509620E-3	3.319725E-7	-6.242341E-6	3.256163E-9
		
V_DS = 	-0.600	
Number of Averages = 	5	
Width/um =	4000	
Length/um =	20	
