V_G	I_DS (A)	I_DS Error (A)	I_G (A)	I_G Error (A)
-0.85	-1.066140E-3	4.652741E-6	-8.407972E-8	4.095405E-10
-0.825	-8.748020E-4	2.468030E-6	-7.856534E-8	4.259200E-10
-0.8	-7.188460E-4	1.365295E-6	-7.523107E-8	2.783058E-10
-0.775	-5.852760E-4	7.455401E-7	-7.368429E-8	1.018517E-9
-0.75	-4.670840E-4	4.086930E-7	-6.971988E-8	2.559727E-10
-0.725	-3.609940E-4	2.300652E-7	-6.689533E-8	6.413636E-10
-0.7	-2.664740E-4	2.164024E-7	-6.560484E-8	3.614791E-10
-0.675	-1.845720E-4	1.819890E-7	-6.314220E-8	1.829739E-10
-0.65	-1.171060E-4	1.543697E-7	-6.135104E-8	6.646024E-10
-0.625	-6.584780E-5	1.547553E-7	-5.891306E-8	9.704585E-11
-0.6	-3.130040E-5	1.060061E-7	-5.741654E-8	4.171253E-10
-0.575	-1.185400E-5	6.346653E-8	-5.519026E-8	4.418282E-10
-0.55	-3.365520E-6	2.882069E-8	-5.311339E-8	4.868406E-10
-0.525	-7.445840E-7	8.677501E-9	-5.279609E-8	1.862528E-10
-0.5	-1.993080E-7	2.332417E-9	-4.660726E-8	4.396990E-10
-0.475	-1.007620E-7	7.755127E-10	-4.428736E-8	1.530636E-10
-0.45	-7.661920E-8	2.188771E-10	-4.280241E-8	1.567433E-10
-0.425	-6.900160E-8	4.723820E-10	-4.064560E-8	1.271314E-10
-0.4	-6.372580E-8	1.983688E-10	-3.851422E-8	3.111344E-10
-0.375	-6.117740E-8	2.658163E-10	-3.786253E-8	5.510047E-11
-0.35	-6.089700E-8	2.884276E-10	-3.463206E-8	1.276952E-10
-0.325	-6.013840E-8	1.808074E-10	-3.211044E-8	1.774567E-11
-0.3	-6.074220E-8	2.648060E-10	-3.027384E-8	9.979727E-11
-0.275	-6.191900E-8	1.168289E-10	-2.770714E-8	2.952349E-11
-0.25	-6.259920E-8	1.210896E-10	-2.561118E-8	3.900395E-11
-0.225	-6.337040E-8	1.759000E-10	-2.393514E-8	4.548782E-11
-0.2	-6.523300E-8	1.347429E-9	-2.180141E-8	1.327488E-9
-0.175	-6.663300E-8	9.530477E-11	-1.785452E-8	2.688284E-11
-0.15	-6.809580E-8	5.126110E-11	-1.483179E-8	5.408640E-11
-0.125	-7.056380E-8	2.680992E-10	-1.163532E-8	2.591166E-10

V_DS = 	-0.600	
Number of Averages = 	5	
Width/um =	1000	
Length/um =	20	

