Time (s)	Corrected time (s)	WE(1).Potential (V)	WE(1).Current (A)	Index
263.628710334401	0	-0.2977294921875	-9.444580078125E-07	1
263.728710334149	0.0999999997475243	-0.2987060546875	-3.6651611328125E-06	2
263.828710333897	0.199999999495049	-0.29949951171875	-2.97698974609375E-06	3
263.928710333644	0.299999999242573	-0.29949951171875	-2.49847412109375E-06	4
264.028710333392	0.399999998990097	-0.299530029296875	-2.1893310546875E-06	5
264.128710333139	0.499999998737621	-0.29949951171875	-1.9329833984375E-06	6
264.228710332887	0.599999998485146	-0.29949951171875	-1.74957275390625E-06	7
264.328710332634	0.69999999823267	-0.299530029296875	-1.573486328125E-06	8
264.428710332382	0.799999997980194	-0.299530029296875	-1.44134521484375E-06	9
264.528710332129	0.899999997727718	-0.299530029296875	-1.33331298828125E-06	10
264.628710331877	0.999999997475243	-0.299560546875	-1.2249755859375E-06	11
264.728710331624	1.09999999722277	-0.299560546875	-1.1492919921875E-06	12
264.828710331372	1.19999999697029	-0.29949951171875	-1.08154296875E-06	13
264.928710331119	1.29999999671782	-0.29949951171875	-1.0211181640625E-06	14
265.028710330867	1.39999999646534	-0.299530029296875	-9.6099853515625E-07	15
265.128710330614	1.49999999621286	-0.299530029296875	-8.673095703125E-07	16
265.228710330362	1.59999999596039	-0.299560546875	-8.9263916015625E-07	17
265.328710330109	1.69999999570791	-0.299591064453125	-8.4320068359375E-07	18
265.428710329857	1.79999999545544	-0.299530029296875	-8.184814453125E-07	19
265.528710329604	1.89999999520296	-0.2994384765625	-7.91015625E-07	20
265.628710329352	1.99999999495049	-0.2994384765625	-7.32421875E-07	21
265.7287103291	2.09999999469801	-0.299468994140625	-7.0159912109375E-07	22
265.828710328847	2.19999999444553	-0.2994384765625	-6.8634033203125E-07	23
265.928710328595	2.29999999419306	-0.299530029296875	-7.0098876953125E-07	24
266.028710328342	2.39999999394058	-0.299468994140625	-6.53076171875E-07	25
266.12871032809	2.49999999368811	-0.299407958984375	-6.3873291015625E-07	26
266.228710327837	2.59999999343563	-0.299530029296875	-6.2286376953125E-07	27
266.328710327585	2.69999999318316	-0.2994384765625	-6.390380859375E-07	28
266.428710327332	2.79999999293068	-0.29949951171875	-5.859375E-07	29
266.52871032708	2.8999999926782	-0.299468994140625	-5.6396484375E-07	30
266.628710326827	2.99999999242573	-0.29949951171875	-5.609130859375E-07	31
266.728710326575	3.09999999217325	-0.299530029296875	-5.2886962890625E-07	32
266.828710326322	3.19999999192078	-0.299530029296875	-5.157470703125E-07	33
266.92871032607	3.2999999916683	-0.299530029296875	-5.035400390625E-07	34
267.028710325817	3.39999999141583	-0.29949951171875	-4.974365234375E-07	35
267.128710325565	3.49999999116335	-0.299530029296875	-4.9468994140625E-07	36
267.228710325312	3.59999999091087	-0.29949951171875	-4.779052734375E-07	37
267.32871032506	3.6999999906584	-0.29949951171875	-4.7113037109375E-07	38
267.428710324807	3.79999999040592	-0.299468994140625	-4.56634521484375E-07	39
267.528710324555	3.89999999015345	-0.29949951171875	-4.5489501953125E-07	40
267.628710324302	3.99999998990097	-0.2994384765625	-4.42901611328125E-07	41
267.72871032405	4.0999999896485	-0.29949951171875	-4.2779541015625E-07	42
267.828710323798	4.19999998939602	-0.2994384765625	-4.2266845703125E-07	43
267.928710323545	4.29999998914354	-0.299468994140625	-4.29901123046875E-07	44
268.028710323293	4.39999998889107	-0.29949951171875	-4.07135009765625E-07	45
268.12871032304	4.49999998863859	-0.29949951171875	-4.00970458984375E-07	46
268.228710322788	4.59999998838612	-0.299560546875	-3.951416015625E-07	47
268.328710322535	4.69999998813364	-0.299530029296875	-3.86322021484375E-07	48
268.428710322283	4.79999998788117	-0.299560546875	-3.88092041015625E-07	49
268.52871032203	4.89999998762869	-0.29949951171875	-3.68255615234375E-07	50
268.628710321778	4.99999998737621	-0.299468994140625	-3.67767333984375E-07	51
268.728710321525	5.09999998712374	-0.299530029296875	-3.6724853515625E-07	52
268.828710321273	5.19999998687126	-0.299530029296875	-3.6553955078125E-07	53
268.92871032102	5.29999998661879	-0.29949951171875	-3.56201171875E-07	54
269.028710320768	5.39999998636631	-0.29949951171875	-3.4954833984375E-07	55
269.128710320515	5.49999998611383	-0.29949951171875	-3.45458984375E-07	56
269.228710320263	5.59999998586136	-0.299530029296875	-3.4686279296875E-07	57
269.32871032001	5.69999998560888	-0.299530029296875	-3.4375E-07	58
269.428710319758	5.79999998535641	-0.299468994140625	-3.3795166015625E-07	59
269.528710319505	5.89999998510393	-0.299468994140625	-3.28399658203125E-07	60
269.628710319253	5.99999998485146	-0.299530029296875	-3.30413818359375E-07	61
269.728710319	6.09999998459898	-0.299468994140625	-3.2403564453125E-07	62
269.828710318748	6.1999999843465	-0.299468994140625	-3.140869140625E-07	63
269.928710318496	6.29999998409403	-0.29949951171875	-3.16680908203125E-07	64
270.028710318243	6.39999998384155	-0.29949951171875	-3.08929443359375E-07	65
270.128710317991	6.49999998358908	-0.299468994140625	-3.0902099609375E-07	66
270.228710317738	6.5999999833366	-0.29949951171875	-3.03680419921875E-07	67
270.328710317486	6.69999998308413	-0.299530029296875	-2.92236328125E-07	68
270.428710317233	6.79999998283165	-0.29949951171875	-2.8924560546875E-07	69
270.528710316981	6.89999998257917	-0.29949951171875	-2.98187255859375E-07	70
270.628710316728	6.9999999823267	-0.29949951171875	-2.9132080078125E-07	71
270.728710316476	7.09999998207422	-0.29949951171875	-2.99407958984375E-07	72
270.828710316223	7.19999998182175	-0.29949951171875	-2.83660888671875E-07	73
270.928710315971	7.29999998156927	-0.29949951171875	-2.8326416015625E-07	74
271.028710315718	7.3999999813168	-0.299530029296875	-2.79998779296875E-07	75
271.128710315466	7.49999998106432	-0.299530029296875	-2.82623291015625E-07	76
271.228710315213	7.59999998081184	-0.299468994140625	-2.7557373046875E-07	77
271.328710314961	7.69999998055937	-0.299468994140625	-2.76702880859375E-07	78
271.428710314708	7.79999998030689	-0.299530029296875	-2.7044677734375E-07	79
271.528710314456	7.89999998005442	-0.299468994140625	-2.635498046875E-07	80
271.628710314203	7.99999997980194	-0.299468994140625	-2.6531982421875E-07	81
271.728710313951	8.09999997954947	-0.299530029296875	-2.63092041015625E-07	82
271.828710313698	8.19999997929699	-0.299530029296875	-2.4853515625E-07	83
271.928710313446	8.29999997904451	-0.29949951171875	-2.5555419921875E-07	84
272.028710313194	8.39999997879204	-0.29949951171875	-2.5225830078125E-07	85
272.128710312941	8.49999997853956	-0.299560546875	-2.523193359375E-07	86
272.228710312689	8.59999997828709	-0.29949951171875	-2.547607421875E-07	87
272.328710312436	8.69999997803461	-0.299530029296875	-2.5299072265625E-07	88
272.428710312184	8.79999997778214	-0.299560546875	-2.49481201171875E-07	89
272.528710311931	8.89999997752966	-0.29949951171875	-2.47802734375E-07	90
272.628710311679	8.99999997727718	-0.299560546875	-2.3675537109375E-07	91
272.728710311426	9.09999997702471	-0.299530029296875	-2.4249267578125E-07	92
272.828710311174	9.19999997677223	-0.299560546875	-2.48382568359375E-07	93
272.928710310921	9.29999997651976	-0.299530029296875	-2.33856201171875E-07	94
273.028710310669	9.39999997626728	-0.299530029296875	-2.48138427734375E-07	95
273.128710310416	9.49999997601481	-0.29949951171875	-2.38800048828125E-07	96
273.228710310164	9.59999997576233	-0.29949951171875	-2.3394775390625E-07	97
273.328710309911	9.69999997550985	-0.299530029296875	-2.2613525390625E-07	98
273.428710309659	9.79999997525738	-0.299560546875	-2.29888916015625E-07	99
273.528710309406	9.8999999750049	-0.29949951171875	-2.27996826171875E-07	100
273.628710309154	9.99999997475243	-0.29949951171875	-2.2857666015625E-07	101
273.728710308901	10.0999999745	-0.299560546875	-2.2625732421875E-07	102
273.828710308649	10.1999999742475	-0.299468994140625	-2.29644775390625E-07	103
273.928710308396	10.299999973995	-0.299560546875	-2.2601318359375E-07	104
274.028710308144	10.3999999737425	-0.299530029296875	-2.18231201171875E-07	105
274.128710307892	10.49999997349	-0.299560546875	-2.196044921875E-07	106
274.228710307639	10.5999999732376	-0.29949951171875	-2.20611572265625E-07	107
274.328710307387	10.6999999729851	-0.299468994140625	-2.16705322265625E-07	108
274.428710307134	10.7999999727326	-0.299560546875	-2.19390869140625E-07	109
274.528710306882	10.8999999724801	-0.29949951171875	-2.20428466796875E-07	110
274.628710306629	10.9999999722277	-0.299530029296875	-2.14996337890625E-07	111
274.728710306377	11.0999999719752	-0.299530029296875	-2.0794677734375E-07	112
274.828710306124	11.1999999717227	-0.299560546875	-2.0941162109375E-07	113
274.928710305872	11.2999999714702	-0.299560546875	-2.0721435546875E-07	114
275.028710305619	11.3999999712178	-0.299468994140625	-2.0672607421875E-07	115
275.128710305367	11.4999999709653	-0.299560546875	-2.1307373046875E-07	116
275.228710305114	11.5999999707128	-0.299468994140625	-2.01934814453125E-07	117
275.328710304862	11.6999999704603	-0.299530029296875	-2.00042724609375E-07	118
275.428710304609	11.7999999702079	-0.29949951171875	-2.04681396484375E-07	119
275.528710304357	11.8999999699554	-0.299530029296875	-2.02667236328125E-07	120
275.628710304104	11.9999999697029	-0.29949951171875	-2.0294189453125E-07	121
275.728710303852	12.0999999694504	-0.299530029296875	-1.97021484375E-07	122
275.828710303599	12.199999969198	-0.299560546875	-2.01202392578125E-07	123
275.928710303347	12.2999999689455	-0.29949951171875	-1.966552734375E-07	124
276.028710303095	12.399999968693	-0.299560546875	-1.949462890625E-07	125
276.128710302842	12.4999999684405	-0.299530029296875	-1.98272705078125E-07	126
276.22871030259	12.5999999681881	-0.299560546875	-1.95556640625E-07	127
276.328710302337	12.6999999679356	-0.29949951171875	-1.956787109375E-07	128
276.428710302085	12.7999999676831	-0.299468994140625	-1.94305419921875E-07	129
276.528710301832	12.8999999674306	-0.299530029296875	-1.92230224609375E-07	130
276.62871030158	12.9999999671782	-0.299560546875	-1.93572998046875E-07	131
276.728710301327	13.0999999669257	-0.299530029296875	-1.94305419921875E-07	132
276.828710301075	13.1999999666732	-0.29949951171875	-1.74163818359375E-07	133
276.928710300822	13.2999999664207	-0.29949951171875	-1.468505859375E-07	134
277.02871030057	13.3999999661683	-0.299530029296875	-1.66961669921875E-07	135
277.128710300317	13.4999999659158	-0.299530029296875	-1.68670654296875E-07	136
277.228710300065	13.5999999656633	-0.299530029296875	-1.6650390625E-07	137
277.328710299812	13.6999999654108	-0.299530029296875	-1.695556640625E-07	138
277.42871029956	13.7999999651583	-0.299560546875	-1.7803955078125E-07	139
277.528710299307	13.8999999649059	-0.299560546875	-1.81732177734375E-07	140
277.628710299055	13.9999999646534	-0.29949951171875	-1.74468994140625E-07	141
277.728710298802	14.0999999644009	-0.29949951171875	-1.82952880859375E-07	142
277.82871029855	14.1999999641484	-0.299530029296875	-1.73492431640625E-07	143
277.928710298297	14.299999963896	-0.299530029296875	-1.785888671875E-07	144
278.028710298045	14.3999999636435	-0.299560546875	-1.8182373046875E-07	145
278.128710297793	14.499999963391	-0.299560546875	-1.7938232421875E-07	146
278.22871029754	14.5999999631385	-0.29949951171875	-1.6455078125E-07	147
278.328710297288	14.6999999628861	-0.299591064453125	-1.72698974609375E-07	148
278.428710297035	14.7999999626336	-0.299530029296875	-1.78741455078125E-07	149
278.528710296783	14.8999999623811	-0.299530029296875	-1.71875E-07	150
278.62871029653	14.9999999621286	-0.299591064453125	-1.59881591796875E-07	151
278.728710296278	15.0999999618762	-0.299530029296875	-1.66534423828125E-07	152
278.828710296025	15.1999999616237	-0.299560546875	-1.7584228515625E-07	153
278.928710295773	15.2999999613712	-0.29949951171875	-1.7303466796875E-07	154
279.02871029552	15.3999999611187	-0.299560546875	-1.65771484375E-07	155
279.128710295268	15.4999999608663	-0.299530029296875	-1.71142578125E-07	156
279.228710295015	15.5999999606138	-0.299468994140625	-1.6668701171875E-07	157
279.328710294763	15.6999999603613	-0.29949951171875	-1.71875E-07	158
279.42871029451	15.7999999601088	-0.299468994140625	-1.595458984375E-07	159
279.528710294258	15.8999999598564	-0.299530029296875	-1.32843017578125E-07	160
279.628710294005	15.9999999596039	-0.299530029296875	-1.50390625E-07	161
279.728710293753	16.0999999593514	-0.299530029296875	-1.7572021484375E-07	162
279.8287102935	16.1999999590989	-0.299530029296875	-1.6290283203125E-07	163
279.928710293248	16.2999999588465	-0.299560546875	-1.51336669921875E-07	164
280.028710292995	16.399999958594	-0.299560546875	-1.689453125E-07	165
280.128710292743	16.4999999583415	-0.29949951171875	-1.65069580078125E-07	166
280.228710292491	16.599999958089	-0.29949951171875	-1.5179443359375E-07	167
280.328710292238	16.6999999578366	-0.299560546875	-1.6064453125E-07	168
280.428710291986	16.7999999575841	-0.299560546875	-1.6400146484375E-07	169
280.528710291733	16.8999999573316	-0.29949951171875	-1.6876220703125E-07	170
280.628710291481	16.9999999570791	-0.299560546875	-1.6021728515625E-07	171
280.728710291228	17.0999999568267	-0.299468994140625	-1.54754638671875E-07	172
280.828710290976	17.1999999565742	-0.299591064453125	-1.5423583984375E-07	173
280.928710290723	17.2999999563217	-0.29949951171875	-1.69525146484375E-07	174
281.028710290471	17.3999999560692	-0.29962158203125	-1.66046142578125E-07	175
281.128710290218	17.4999999558167	-0.299468994140625	-1.59332275390625E-07	176
281.228710289966	17.5999999555643	-0.299530029296875	-1.563720703125E-07	177
281.328710289713	17.6999999553118	-0.299560546875	-1.53961181640625E-07	178
281.428710289461	17.7999999550593	-0.299560546875	-1.56768798828125E-07	179
281.528710289208	17.8999999548068	-0.299591064453125	-1.58660888671875E-07	180
281.628710288956	17.9999999545544	-0.299560546875	-1.561279296875E-07	181
281.728710288703	18.0999999543019	-0.29949951171875	-1.53778076171875E-07	182
281.828710288451	18.1999999540494	-0.29949951171875	-1.50543212890625E-07	183
281.928710288198	18.2999999537969	-0.299560546875	-1.50543212890625E-07	184
282.028710287946	18.3999999535445	-0.299591064453125	-1.5447998046875E-07	185
282.128710287693	18.499999953292	-0.299560546875	-1.58355712890625E-07	186
282.228710287441	18.5999999530395	-0.299468994140625	-1.5985107421875E-07	187
282.328710287189	18.699999952787	-0.299591064453125	-1.5020751953125E-07	188
282.428710286936	18.7999999525346	-0.299530029296875	-1.50115966796875E-07	189
282.528710286684	18.8999999522821	-0.299530029296875	-1.5655517578125E-07	190
282.628710286431	18.9999999520296	-0.299530029296875	-1.51275634765625E-07	191
282.728710286179	19.0999999517771	-0.299560546875	-1.47979736328125E-07	192
282.828710285926	19.1999999515247	-0.299591064453125	-1.4404296875E-07	193
282.928710285674	19.2999999512722	-0.29949951171875	-1.4520263671875E-07	194
283.028710285421	19.3999999510197	-0.29949951171875	-1.4349365234375E-07	195
283.128710285169	19.4999999507672	-0.299560546875	-1.48590087890625E-07	196
283.228710284916	19.5999999505148	-0.299530029296875	-1.478271484375E-07	197
283.328710284664	19.6999999502623	-0.299560546875	-1.47247314453125E-07	198
283.428710284411	19.7999999500098	-0.299560546875	-1.46514892578125E-07	199
283.528710284159	19.8999999497573	-0.29949951171875	-1.50177001953125E-07	200
283.628710283906	19.9999999495049	-0.299560546875	-1.37847900390625E-07	201
283.728710283654	20.0999999492524	-0.299560546875	-1.44287109375E-07	202
283.828710283401	20.1999999489999	-0.299530029296875	-1.4251708984375E-07	203
283.928710283149	20.2999999487474	-0.299530029296875	-1.453857421875E-07	204
284.028710282896	20.399999948495	-0.299530029296875	-1.4349365234375E-07	205
284.128710282644	20.4999999482425	-0.299560546875	-1.47979736328125E-07	206
284.228710282391	20.59999994799	-0.299530029296875	-1.47918701171875E-07	207
284.328710282139	20.6999999477375	-0.299530029296875	-1.48834228515625E-07	208
284.428710281887	20.799999947485	-0.299530029296875	-1.4764404296875E-07	209
284.528710281634	20.8999999472326	-0.299530029296875	-1.461181640625E-07	210
284.628710281382	20.9999999469801	-0.29949951171875	-1.4111328125E-07	211
284.728710281129	21.0999999467276	-0.299530029296875	-1.39617919921875E-07	212
284.828710280877	21.1999999464751	-0.299530029296875	-1.37969970703125E-07	213
284.928710280624	21.2999999462227	-0.29949951171875	-1.43829345703125E-07	214
285.028710280372	21.3999999459702	-0.299591064453125	-1.4202880859375E-07	215
285.128710280119	21.4999999457177	-0.299530029296875	-1.451416015625E-07	216
285.228710279867	21.5999999454652	-0.299530029296875	-1.40472412109375E-07	217
285.328710279614	21.6999999452128	-0.299530029296875	-1.40045166015625E-07	218
285.428710279362	21.7999999449603	-0.299560546875	-1.4056396484375E-07	219
285.528710279109	21.8999999447078	-0.299560546875	-1.3348388671875E-07	220
285.628710278857	21.9999999444553	-0.29949951171875	-1.37237548828125E-07	221
285.728710278604	22.0999999442029	-0.29949951171875	-1.3726806640625E-07	222
285.828710278352	22.1999999439504	-0.29949951171875	-1.38519287109375E-07	223
285.928710278099	22.2999999436979	-0.299591064453125	-1.4239501953125E-07	224
286.028710277847	22.3999999434454	-0.29949951171875	-1.36627197265625E-07	225
286.128710277594	22.499999943193	-0.29949951171875	-1.41265869140625E-07	226
286.228710277342	22.5999999429405	-0.299530029296875	-1.3812255859375E-07	227
286.32871027709	22.699999942688	-0.299530029296875	-1.3031005859375E-07	228
286.428710276837	22.7999999424355	-0.29949951171875	-1.33758544921875E-07	229
286.528710276585	22.8999999421831	-0.299530029296875	-1.3543701171875E-07	230
286.628710276332	22.9999999419306	-0.299530029296875	-1.40594482421875E-07	231
286.72871027608	23.0999999416781	-0.29949951171875	-1.31561279296875E-07	232
286.828710275827	23.1999999414256	-0.299560546875	-1.396484375E-07	233
286.928710275575	23.2999999411732	-0.299591064453125	-1.341552734375E-07	234
287.028710275322	23.3999999409207	-0.299530029296875	-1.3360595703125E-07	235
287.12871027507	23.4999999406682	-0.299530029296875	-1.4117431640625E-07	236
287.228710274817	23.5999999404157	-0.299560546875	-1.35833740234375E-07	237
287.328710274565	23.6999999401633	-0.299530029296875	-1.35040283203125E-07	238
287.428710274312	23.7999999399108	-0.299530029296875	-1.302490234375E-07	239
287.52871027406	23.8999999396583	-0.29949951171875	-1.33331298828125E-07	240
287.628710273807	23.9999999394058	-0.299560546875	-1.34521484375E-07	241
287.728710273555	24.0999999391533	-0.299530029296875	-1.346435546875E-07	242
287.828710273302	24.1999999389009	-0.299468994140625	-1.35345458984375E-07	243
287.92871027305	24.2999999386484	-0.299591064453125	-1.34735107421875E-07	244
288.028710272797	24.3999999383959	-0.299530029296875	-1.35711669921875E-07	245
288.128710272545	24.4999999381434	-0.299591064453125	-1.3104248046875E-07	246
288.228710272292	24.599999937891	-0.299530029296875	-1.3043212890625E-07	247
288.32871027204	24.6999999376385	-0.299560546875	-1.3189697265625E-07	248
288.428710271788	24.799999937386	-0.29949951171875	-1.314697265625E-07	249
288.528710271535	24.8999999371335	-0.299530029296875	-1.31927490234375E-07	250
288.628710271283	24.9999999368811	-0.29949951171875	-1.31134033203125E-07	251
288.72871027103	25.0999999366286	-0.299560546875	-1.2725830078125E-07	252
288.828710270778	25.1999999363761	-0.299560546875	-1.3519287109375E-07	253
288.928710270525	25.2999999361236	-0.299530029296875	-1.32080078125E-07	254
289.028710270273	25.3999999358712	-0.299530029296875	-1.4190673828125E-07	255
289.12871027002	25.4999999356187	-0.299530029296875	-1.32232666015625E-07	256
289.228710269768	25.5999999353662	-0.299560546875	-1.28662109375E-07	257
289.328710269515	25.6999999351137	-0.299530029296875	-1.31744384765625E-07	258
289.428710269263	25.7999999348613	-0.299560546875	-1.3037109375E-07	259
289.52871026901	25.8999999346088	-0.299530029296875	-1.29425048828125E-07	260
289.628710268758	25.9999999343563	-0.299560546875	-1.2884521484375E-07	261
289.728710268505	26.0999999341038	-0.299530029296875	-1.295166015625E-07	262
289.828710268253	26.1999999338514	-0.299530029296875	-1.30462646484375E-07	263
289.928710268	26.2999999335989	-0.299530029296875	-1.29058837890625E-07	264
290.028710267748	26.3999999333464	-0.29949951171875	-1.2701416015625E-07	265
290.128710267495	26.4999999330939	-0.299560546875	-1.28143310546875E-07	266
290.228710267243	26.5999999328415	-0.299530029296875	-1.2835693359375E-07	267
290.32871026699	26.699999932589	-0.29949951171875	-1.27716064453125E-07	268
290.428710266738	26.7999999323365	-0.299530029296875	-1.26983642578125E-07	269
290.528710266486	26.899999932084	-0.299530029296875	-1.28448486328125E-07	270
290.628710266233	26.9999999318316	-0.29949951171875	-1.2646484375E-07	271
290.728710265981	27.0999999315791	-0.299591064453125	-1.26312255859375E-07	272
290.828710265728	27.1999999313266	-0.299530029296875	-1.25701904296875E-07	273
290.928710265476	27.2999999310741	-0.29949951171875	-1.26434326171875E-07	274
291.028710265223	27.3999999308217	-0.299530029296875	-1.24114990234375E-07	275
291.128710264971	27.4999999305692	-0.299560546875	-1.2750244140625E-07	276
291.228710264718	27.5999999303167	-0.299530029296875	-1.2591552734375E-07	277
291.328710264466	27.6999999300642	-0.299560546875	-1.2371826171875E-07	278
291.428710264213	27.7999999298117	-0.299560546875	-1.26739501953125E-07	279
291.528710263961	27.8999999295593	-0.29949951171875	-1.248779296875E-07	280
291.628710263708	27.9999999293068	-0.299530029296875	-1.24298095703125E-07	281
291.728710263456	28.0999999290543	-0.299468994140625	-1.2579345703125E-07	282
291.828710263203	28.1999999288018	-0.299530029296875	-1.24176025390625E-07	283
291.928710262951	28.2999999285494	-0.299591064453125	-1.23748779296875E-07	284
292.028710262698	28.3999999282969	-0.299530029296875	-1.2347412109375E-07	285
292.128710262446	28.4999999280444	-0.299560546875	-1.24603271484375E-07	286
292.228710262193	28.5999999277919	-0.29962158203125	-1.24176025390625E-07	287
292.328710261941	28.6999999275395	-0.299560546875	-1.24420166015625E-07	288
292.428710261688	28.799999927287	-0.299468994140625	-1.2274169921875E-07	289
292.528710261436	28.8999999270345	-0.29949951171875	-1.2359619140625E-07	290
292.628710261184	28.999999926782	-0.299530029296875	-1.24603271484375E-07	291
292.728710260931	29.0999999265296	-0.299560546875	-1.2200927734375E-07	292
292.828710260679	29.1999999262771	-0.299530029296875	-1.24053955078125E-07	293
292.928710260426	29.2999999260246	-0.299530029296875	-1.21734619140625E-07	294
293.028710260174	29.3999999257721	-0.299530029296875	-1.20635986328125E-07	295
293.128710259921	29.4999999255197	-0.299530029296875	-1.21246337890625E-07	296
293.228710259669	29.5999999252672	-0.29949951171875	-1.21856689453125E-07	297
293.328710259416	29.6999999250147	-0.299560546875	-1.20574951171875E-07	298
293.428710259164	29.7999999247622	-0.299530029296875	-1.24176025390625E-07	299
293.528710258911	29.8999999245098	-0.299530029296875	-1.20574951171875E-07	300
293.628710258659	29.9999999242573	-0.299530029296875	-1.2115478515625E-07	301
293.728710258406	30.0999999240048	-0.299560546875	-1.22314453125E-07	302
293.828710258154	30.1999999237523	-0.299530029296875	-1.20269775390625E-07	303
293.928710257901	30.2999999234999	-0.299591064453125	-1.20635986328125E-07	304
294.028710257649	30.3999999232474	-0.299530029296875	-1.197509765625E-07	305
294.128710257396	30.4999999229949	-0.29949951171875	-1.23046875E-07	306
294.228710257144	30.5999999227424	-0.29949951171875	-1.2158203125E-07	307
294.328710256891	30.69999992249	-0.299530029296875	-1.18255615234375E-07	308
294.428710256639	30.7999999222375	-0.29949951171875	-1.204833984375E-07	309
294.528710256386	30.899999921985	-0.299530029296875	-1.18255615234375E-07	310
294.628710256134	30.9999999217325	-0.299560546875	-1.1865234375E-07	311
294.728710255882	31.09999992148	-0.299560546875	-1.1871337890625E-07	312
294.828710255629	31.1999999212276	-0.299530029296875	-1.1865234375E-07	313
294.928710255377	31.2999999209751	-0.299530029296875	-1.20452880859375E-07	314
295.028710255124	31.3999999207226	-0.299560546875	-1.18896484375E-07	315
295.128710254872	31.4999999204701	-0.299560546875	-1.18988037109375E-07	316
295.228710254619	31.5999999202177	-0.299530029296875	-1.18194580078125E-07	317
295.328710254367	31.6999999199652	-0.299560546875	-1.1761474609375E-07	318
295.428710254114	31.7999999197127	-0.299530029296875	-1.177978515625E-07	319
295.528710253862	31.8999999194602	-0.299530029296875	-1.1712646484375E-07	320
295.628710253609	31.9999999192078	-0.299591064453125	-1.16943359375E-07	321
295.728710253357	32.0999999189553	-0.299560546875	-1.168212890625E-07	322
295.828710253104	32.1999999187028	-0.299560546875	-1.18255615234375E-07	323
295.928710252852	32.2999999184503	-0.299468994140625	-1.18682861328125E-07	324
296.028710252599	32.3999999181979	-0.299530029296875	-1.185302734375E-07	325
296.128710252347	32.4999999179454	-0.299530029296875	-1.1767578125E-07	326
296.228710252094	32.5999999176929	-0.299530029296875	-1.16363525390625E-07	327
296.328710251842	32.6999999174404	-0.29949951171875	-1.182861328125E-07	328
296.428710251589	32.799999917188	-0.299560546875	-1.1566162109375E-07	329
296.528710251337	32.8999999169355	-0.299560546875	-1.16363525390625E-07	330
296.628710251085	32.999999916683	-0.299560546875	-1.15753173828125E-07	331
296.728710250832	33.0999999164305	-0.299560546875	-1.13800048828125E-07	332
296.82871025058	33.1999999161781	-0.299530029296875	-1.1639404296875E-07	333
296.928710250327	33.2999999159256	-0.299560546875	-1.14715576171875E-07	334
297.028710250075	33.3999999156731	-0.299530029296875	-1.1627197265625E-07	335
297.128710249822	33.4999999154206	-0.299530029296875	-1.15814208984375E-07	336
297.22871024957	33.5999999151682	-0.29949951171875	-1.15814208984375E-07	337
297.328710249317	33.6999999149157	-0.299560546875	-1.15203857421875E-07	338
297.428710249065	33.7999999146632	-0.299530029296875	-1.1358642578125E-07	339
297.528710248812	33.8999999144107	-0.299591064453125	-1.131591796875E-07	340
297.62871024856	33.9999999141583	-0.299530029296875	-1.14654541015625E-07	341
297.728710248307	34.0999999139058	-0.29949951171875	-1.14532470703125E-07	342
297.828710248055	34.1999999136533	-0.299591064453125	-1.1474609375E-07	343
297.928710247802	34.2999999134008	-0.299530029296875	-1.14105224609375E-07	344
298.02871024755	34.3999999131483	-0.29949951171875	-1.1444091796875E-07	345
298.128710247297	34.4999999128959	-0.299560546875	-1.1444091796875E-07	346
298.228710247045	34.5999999126434	-0.299560546875	-1.1480712890625E-07	347
298.328710246792	34.6999999123909	-0.29949951171875	-1.12945556640625E-07	348
298.42871024654	34.7999999121384	-0.299560546875	-1.124267578125E-07	349
298.528710246287	34.899999911886	-0.29949951171875	-1.13555908203125E-07	350
298.628710246035	34.9999999116335	-0.299530029296875	-1.13861083984375E-07	351
298.728710245783	35.099999911381	-0.299560546875	-1.1456298828125E-07	352
298.82871024553	35.1999999111285	-0.299560546875	-1.1212158203125E-07	353
298.928710245278	35.2999999108761	-0.29949951171875	-1.12030029296875E-07	354
299.028710245025	35.3999999106236	-0.299560546875	-1.119384765625E-07	355
299.128710244773	35.4999999103711	-0.299530029296875	-1.13433837890625E-07	356
299.22871024452	35.5999999101186	-0.299530029296875	-1.12762451171875E-07	357
299.328710244268	35.6999999098662	-0.299560546875	-1.1273193359375E-07	358
299.428710244015	35.7999999096137	-0.299560546875	-1.13006591796875E-07	359
299.528710243763	35.8999999093612	-0.299560546875	-1.13006591796875E-07	360
299.62871024351	35.9999999091087	-0.29949951171875	-1.12152099609375E-07	361
299.728710243258	36.0999999088563	-0.299560546875	-1.0992431640625E-07	362
299.828710243005	36.1999999086038	-0.299560546875	-1.12030029296875E-07	363
299.928710242753	36.2999999083513	-0.299591064453125	-1.10015869140625E-07	364
300.0287102425	36.3999999080988	-0.299591064453125	-1.112060546875E-07	365
300.128710242248	36.4999999078464	-0.299560546875	-1.11785888671875E-07	366
300.228710241995	36.5999999075939	-0.299530029296875	-1.11572265625E-07	367
300.328710241743	36.6999999073414	-0.299530029296875	-1.10107421875E-07	368
300.42871024149	36.7999999070889	-0.299530029296875	-1.103515625E-07	369
300.528710241238	36.8999999068365	-0.299560546875	-1.1151123046875E-07	370
300.628710240985	36.999999906584	-0.299530029296875	-1.1236572265625E-07	371
300.728710240733	37.0999999063315	-0.29949951171875	-1.0894775390625E-07	372
300.828710240481	37.199999906079	-0.29949951171875	-1.10992431640625E-07	373
300.928710240228	37.2999999058266	-0.29949951171875	-1.12335205078125E-07	374
301.028710239976	37.3999999055741	-0.299591064453125	-1.0797119140625E-07	375
301.128710239723	37.4999999053216	-0.299560546875	-1.1083984375E-07	376
301.228710239471	37.5999999050691	-0.299530029296875	-1.09222412109375E-07	377
301.328710239218	37.6999999048167	-0.299530029296875	-1.0980224609375E-07	378
301.428710238966	37.7999999045642	-0.299530029296875	-1.103515625E-07	379
301.528710238713	37.8999999043117	-0.29949951171875	-1.10931396484375E-07	380
301.628710238461	37.9999999040592	-0.299560546875	-1.0821533203125E-07	381
301.728710238208	38.0999999038067	-0.299591064453125	-1.099853515625E-07	382
301.828710237956	38.1999999035543	-0.29962158203125	-1.1175537109375E-07	383
301.928710237703	38.2999999033018	-0.299530029296875	-1.09283447265625E-07	384
302.028710237451	38.3999999030493	-0.299530029296875	-1.09405517578125E-07	385
302.128710237198	38.4999999027968	-0.299560546875	-1.08795166015625E-07	386
302.228710236946	38.5999999025444	-0.299530029296875	-1.08612060546875E-07	387
302.328710236693	38.6999999022919	-0.299530029296875	-1.0906982421875E-07	388
302.428710236441	38.7999999020394	-0.29949951171875	-1.10382080078125E-07	389
302.528710236188	38.8999999017869	-0.299560546875	-1.0882568359375E-07	390
302.628710235936	38.9999999015345	-0.299530029296875	-1.06292724609375E-07	391
302.728710235683	39.099999901282	-0.299560546875	-1.07940673828125E-07	392
302.828710235431	39.1999999010295	-0.299560546875	-1.099853515625E-07	393
302.928710235179	39.299999900777	-0.29949951171875	-1.07330322265625E-07	394
303.028710234926	39.3999999005246	-0.299560546875	-1.07391357421875E-07	395
303.128710234674	39.4999999002721	-0.299560546875	-1.07666015625E-07	396
303.228710234421	39.5999999000196	-0.299530029296875	-1.0711669921875E-07	397
303.328710234169	39.6999998997671	-0.299560546875	-1.06964111328125E-07	398
303.428710233916	39.7999998995147	-0.29962158203125	-1.0888671875E-07	399
303.528710233664	39.8999998992622	-0.29949951171875	-1.07391357421875E-07	400
