V_G	I_DS (A)	I_DS Error (A)	I_G (A)	I_G Error (A)

0	-4.110360E-8	8.521326E-11	-1.235892E-8	1.604898E-10
-0.025	-3.660240E-8	6.535518E-11	-1.969900E-8	9.439461E-11
-0.05	-3.239160E-8	3.331566E-10	-2.650068E-8	2.538240E-11
-0.075	-2.882600E-8	6.616646E-11	-3.271672E-8	3.144285E-11
-0.1	-2.504220E-8	5.970930E-11	-3.882922E-8	4.048153E-11
-0.125	-2.091340E-8	8.447958E-11	-4.523430E-8	2.977428E-11
-0.15	-1.676540E-8	1.193327E-10	-5.169523E-8	8.995460E-11
-0.175	-1.229340E-8	5.892623E-11	-5.808248E-8	3.869973E-11
-0.2	-8.696820E-9	7.014069E-11	-6.440426E-8	5.117258E-11
-0.225	-4.499100E-9	4.656742E-11	-7.096358E-8	2.617146E-10
-0.25	-1.115680E-9	4.623275E-11	-7.691456E-8	3.277274E-11
-0.275	2.590760E-9	1.318709E-10	-8.396855E-8	1.470213E-10
-0.3	5.514800E-9	7.245367E-11	-9.105789E-8	9.374272E-11
-0.325	7.715880E-9	1.199525E-10	-9.808946E-8	1.078074E-10
-0.35	8.618100E-9	1.201675E-10	-1.049656E-7	6.252921E-11
-0.375	7.667100E-9	1.120539E-10	-1.118980E-7	1.071559E-10
-0.4	5.773000E-9	1.967642E-10	-1.196992E-7	1.252666E-10
-0.425	-4.716060E-10	1.533153E-10	-1.276534E-7	6.502207E-11
-0.45	-1.735680E-8	7.059725E-10	-1.365694E-7	1.867715E-10
-0.475	-8.124520E-8	4.255662E-9	-1.471345E-7	1.276909E-10
-0.5	-5.014660E-7	3.879239E-8	-1.610508E-7	7.847065E-10
-0.525	-3.277260E-6	1.313346E-7	-1.702306E-7	1.219042E-9
-0.55	-1.281300E-5	3.910403E-7	-1.748186E-7	7.117725E-10
-0.575	-3.622120E-5	7.190074E-7	-1.823180E-7	6.139114E-10
-0.6	-7.900940E-5	1.009094E-6	-1.910135E-7	5.468845E-10
-0.625	-1.425920E-4	1.094290E-6	-1.994330E-7	3.154973E-10
-0.65	-2.253100E-4	1.134637E-6	-2.130556E-7	1.053481E-9
-0.675	-3.232900E-4	1.024256E-6	-2.185085E-7	5.953073E-10
-0.7	-4.319800E-4	8.329766E-7	-2.283156E-7	4.263909E-10
-0.725	-5.462880E-4	4.598587E-7	-2.394706E-7	1.148385E-9
-0.75	-6.620460E-4	2.243435E-7	-2.502432E-7	7.101152E-10
-0.775	-7.741080E-4	8.415284E-7	-2.640856E-7	6.728191E-10
-0.8	-8.778780E-4	1.709085E-6	-2.797956E-7	2.254447E-10
-0.825	-9.673520E-4	2.763706E-6	-2.968731E-7	5.507924E-10
-0.85	-1.036480E-3	4.355112E-6	-3.147842E-7	8.823139E-10
-0.875	-1.077120E-3	6.277898E-6	-3.331347E-7	1.189937E-9
-0.9	-1.077400E-3	9.156419E-6	-3.549364E-7	2.270679E-9
		
V_DS = 	-0.600	
Number of Averages = 	5	
Width/um =	800	
Length/um =	20	
