V_G	I_DS (A)	I_DS Error (A)	I_G (A)	I_G Error (A)

0	-1.096140E-8	4.052530E-11	1.598054E-9	2.591892E-11
-0.025	-1.053980E-8	3.712412E-11	1.033062E-9	4.783659E-12
-0.05	-1.022760E-8	3.011312E-11	5.098781E-10	8.520031E-12
-0.075	-9.757600E-9	2.289760E-11	2.346018E-11	7.128430E-12
-0.1	-9.627520E-9	4.556042E-11	-3.526290E-10	6.284947E-12
-0.125	-9.525080E-9	3.565722E-11	-6.800387E-10	5.314703E-12
-0.15	-9.221100E-9	4.448427E-11	-9.848667E-10	3.434058E-12
-0.175	-9.059880E-9	5.065676E-11	-1.266212E-9	4.134004E-12
-0.2	-9.018140E-9	1.008155E-10	-1.497149E-9	1.092820E-11
-0.225	-9.527220E-9	1.160187E-10	-1.690570E-9	7.848679E-12
-0.25	-1.028100E-8	7.371567E-11	-1.852122E-9	5.863964E-12
-0.275	-1.161480E-8	7.071209E-11	-2.040651E-9	1.126905E-11
-0.3	-1.417140E-8	6.709918E-11	-2.238790E-9	7.210590E-12
-0.325	-1.821780E-8	4.814769E-11	-2.474919E-9	1.232859E-11
-0.35	-2.397340E-8	7.806600E-11	-2.682182E-9	2.624311E-11
-0.375	-3.236300E-8	1.249060E-10	-2.966831E-9	2.542403E-11
-0.4	-4.474060E-8	2.179193E-10	-3.364956E-9	3.849429E-11
-0.425	-6.562460E-8	5.504156E-10	-4.025179E-9	7.364739E-11
-0.45	-1.135660E-7	2.229480E-9	-5.594083E-9	1.215390E-10
-0.475	-2.987540E-7	1.427459E-8	-9.986063E-9	2.128486E-10
-0.5	-1.863960E-6	1.328906E-7	-1.552336E-8	1.886373E-9
-0.525	-9.799440E-6	2.532659E-7	-1.020880E-8	6.911904E-10
-0.55	-3.306460E-5	5.489884E-7	-9.345382E-9	5.434091E-10
-0.575	-8.013560E-5	7.606194E-7	-8.965206E-9	4.439860E-10
-0.6	-1.538280E-4	8.609123E-7	-9.082573E-9	3.157287E-10
-0.625	-2.523120E-4	9.008163E-7	-9.336711E-9	4.281326E-10
-0.65	-3.711420E-4	8.891400E-7	-9.933918E-9	2.793794E-10
-0.675	-5.062400E-4	8.338765E-7	-1.081863E-8	6.724754E-10
-0.7	-6.534380E-4	6.185224E-7	-1.134907E-8	3.679034E-10
-0.725	-8.089580E-4	5.102156E-7	-1.282018E-8	5.362614E-10
-0.75	-9.706640E-4	1.871630E-7	-1.410542E-8	6.540965E-10
-0.775	-1.135440E-3	1.140175E-7	-1.613041E-8	4.382514E-10
-0.8	-1.300900E-3	4.123106E-7	-1.768414E-8	5.787062E-10
-0.825	-1.463800E-3	7.615773E-7	-2.005607E-8	4.221197E-10
-0.85	-1.621420E-3	1.437707E-6	-2.257190E-8	3.621796E-10
-0.875	-1.769320E-3	2.262079E-6	-2.506135E-8	5.017976E-10
-0.9	-1.901520E-3	3.546407E-6	-2.805011E-8	3.651823E-10
		
V_DS = 	-0.600	
Number of Averages = 	5	
Width/um =	100	
Length/um =	20	
