V_G	I_DS (A)	I_DS Error (A)	I_G (A)	I_G Error (A)
-0.9	-2.075404E-3	7.700976E-4	-6.766055E-6	4.449198E-7
-0.875	-1.248910E-3	4.531042E-7	-7.206465E-6	5.101417E-10
-0.85	-1.071051E-3	2.080800E-7	-7.025299E-6	1.134072E-9
-0.825	-9.006365E-4	2.866050E-7	-6.847331E-6	1.119440E-9
-0.8	-7.387336E-4	2.903846E-7	-6.672851E-6	1.969133E-9
-0.775	-5.872797E-4	4.876128E-7	-6.505789E-6	4.264344E-10
-0.75	-4.490298E-4	2.029136E-7	-6.348631E-6	1.593618E-9
-0.725	-3.249849E-4	1.722409E-7	-6.187469E-6	7.854744E-10
-0.7	-2.191461E-4	1.646140E-7	-6.026674E-6	1.137747E-9
-0.675	-1.339720E-4	1.127617E-7	-5.854854E-6	4.693638E-10
-0.65	-7.147911E-5	5.512177E-8	-5.686110E-6	1.077597E-9
-0.625	-3.188998E-5	7.143676E-8	-5.513492E-6	8.309632E-10
-0.6	-1.130447E-5	3.953304E-8	-5.350699E-6	7.397222E-10
-0.575	-3.182100E-6	1.587745E-8	-5.187176E-6	1.053989E-9
-0.55	-8.905512E-7	4.196504E-9	-5.035040E-6	6.082712E-10
-0.525	-4.338750E-7	1.030008E-9	-4.884440E-6	1.375847E-9
-0.5	-3.873958E-7	2.001380E-9	-4.729938E-6	1.454679E-9
-0.475	-3.897458E-7	1.490365E-9	-4.552898E-6	3.398953E-10
-0.45	-4.259191E-7	1.070098E-9	-4.400850E-6	3.079878E-10
-0.425	-4.663392E-7	1.040373E-9	-4.252270E-6	4.051077E-10
-0.4	-5.032052E-7	1.351631E-9	-4.099580E-6	1.039754E-9
-0.375	-5.465894E-7	2.623088E-9	-3.951394E-6	1.055087E-9
-0.35	-5.865401E-7	1.849446E-9	-3.811147E-6	1.071410E-9
-0.325	-6.221415E-7	1.001329E-9	-3.662327E-6	2.759656E-10
-0.3	-6.528754E-7	6.759025E-10	-3.496683E-6	3.111508E-10
-0.275	-6.991709E-7	9.791036E-10	-3.346680E-6	2.627156E-10
-0.25	-7.336222E-7	1.138553E-9	-3.196987E-6	8.538476E-10
-0.225	-7.634093E-7	1.749983E-9	-3.043982E-6	4.836389E-10
-0.2	-7.927757E-7	5.113369E-10	-2.891860E-6	7.618219E-10
-0.175	-8.368415E-7	7.646704E-10	-2.756703E-6	2.547469E-10
-0.15	-8.855132E-7	2.157747E-9	-2.617729E-6	1.196625E-9
-0.125	-9.381059E-7	1.064761E-9	-2.468339E-6	7.521927E-10
-0.1	-9.924414E-7	7.388889E-10	-2.310832E-6	1.683668E-10
-0.075	-1.057407E-6	2.690287E-9	-2.155125E-6	4.675369E-10
-0.05	-1.124804E-6	2.142400E-9	-2.003202E-6	7.440248E-10
-0.025	-1.192221E-6	7.121540E-10	-1.841229E-6	1.310962E-10
0	-1.271699E-6	5.549084E-10	-1.677158E-6	5.578104E-10
-0.025	-1.170484E-6	1.001792E-9	-1.827637E-6	2.545701E-10
-0.05	-1.083815E-6	1.339186E-10	-1.968538E-6	7.558501E-10
-0.075	-9.994594E-7	4.184417E-10	-2.092365E-6	7.053158E-9
-0.1	-9.193984E-7	6.196663E-10	-2.216346E-6	1.378199E-9
-0.125	-8.426689E-7	4.887918E-10	-2.337200E-6	9.534719E-10
-0.15	-7.700965E-7	1.512565E-9	-2.378512E-6	2.677107E-8
-0.175	-6.941399E-7	2.095129E-10	-2.477661E-6	1.044780E-9
-0.2	-6.266680E-7	1.171145E-9	-2.583384E-6	5.960876E-10
-0.225	-5.660559E-7	4.910884E-10	-2.658044E-6	8.696884E-10
-0.25	-5.156847E-7	1.473753E-9	-2.770417E-6	2.213263E-9
-0.275	-4.635895E-7	5.711652E-10	-2.843912E-6	8.542252E-10
-0.3	-4.130414E-7	7.587456E-10	-2.929909E-6	2.823401E-9
-0.325	-3.554684E-7	2.543866E-10	-2.880747E-6	3.019202E-9
-0.35	-3.112762E-7	9.983628E-10	-2.797883E-6	3.092567E-9
-0.375	-2.568191E-7	5.258907E-10	-2.762800E-6	1.483467E-9
-0.4	-2.117151E-7	5.075985E-10	-2.853765E-6	9.126453E-10
-0.425	-1.682784E-7	3.847054E-10	-2.954711E-6	8.337085E-10
-0.45	-1.323976E-7	7.452098E-10	-3.059343E-6	5.233813E-10
-0.475	-9.172942E-8	3.183028E-10	-3.133904E-6	8.260982E-10
-0.5	-7.815397E-8	6.261568E-10	-3.246022E-6	7.178327E-9
-0.525	-8.510967E-8	1.658490E-9	-3.338948E-6	1.061342E-9
-0.55	-3.368836E-7	2.341536E-9	-3.438838E-6	1.538223E-9
-0.575	-2.157519E-6	2.345207E-7	-3.461012E-6	2.147550E-8
-0.6	-7.984104E-6	2.542493E-8	-3.597900E-6	1.256457E-9
-0.625	-7.307768E-5	1.043524E-4	-3.446271E-6	2.281314E-7
-0.65	-5.969980E-5	7.607144E-8	-3.763924E-6	1.757517E-9
-0.675	-1.655980E-4	1.288001E-4	-3.761854E-6	1.154223E-7
-0.7	-3.933295E-4	4.809798E-4	-3.754779E-6	2.861784E-7
-0.725	-2.981577E-4	2.141339E-7	-4.091944E-6	3.397891E-9
-0.75	-4.171035E-4	3.265354E-7	-4.203007E-6	1.916192E-9
-0.775	-5.495662E-4	4.319039E-7	-4.310362E-6	1.345623E-9
-0.8	-6.927613E-4	3.188799E-7	-4.424282E-6	2.229977E-9
-0.825	-8.420766E-4	5.073526E-7	-4.537850E-6	2.630812E-9
-0.85	-9.959191E-4	7.222645E-7	-4.656218E-6	4.284110E-9
-0.875	-1.399366E-3	4.940428E-4	-4.724505E-6	1.723121E-7
-0.9	-1.306442E-3	4.619714E-7	-4.917983E-6	4.348407E-9
		
V_DS = 	-0.600	
Number of Averages = 	5	
Width/um =	1000	
Length/um =	20	
