V_G	I_DS (A)	I_DS Error (A)	I_G (A)	I_G Error (A)
-0.9	-3.214340E-3	1.059717E-6	-1.200838E-6	4.717133E-9
-0.875	-2.909760E-3	1.281796E-6	-1.152626E-6	5.962326E-9
-0.85	-2.610580E-3	1.219426E-6	-1.092785E-6	3.378688E-9
-0.825	-2.317580E-3	1.032957E-6	-1.075895E-6	3.352481E-9
-0.8	-2.033740E-3	1.244186E-6	-1.049136E-6	2.212197E-9
-0.775	-1.758280E-3	1.040192E-6	-9.937679E-7	2.488110E-9
-0.75	-1.493240E-3	1.023719E-6	-9.737141E-7	3.915432E-9
-0.725	-1.238540E-3	1.209545E-6	-9.461073E-7	4.096574E-9
-0.7	-9.969600E-4	1.408190E-6	-9.144680E-7	6.758410E-9
-0.675	-7.716460E-4	1.300415E-6	-8.459026E-7	1.659477E-9
-0.65	-5.662240E-4	1.357748E-6	-8.233991E-7	5.213291E-9
-0.625	-3.857300E-4	1.371040E-6	-7.787104E-7	2.073935E-9
-0.6	-2.354940E-4	1.336387E-6	-7.636083E-7	9.773502E-10
-0.575	-1.227080E-4	1.197986E-6	-7.285675E-7	4.714503E-9
-0.55	-5.111600E-5	7.607887E-7	-6.911403E-7	5.749634E-9
-0.525	-1.636100E-5	4.253028E-7	-6.571998E-7	7.332672E-9
-0.5	-4.647180E-6	2.338673E-7	-6.331855E-7	4.082910E-9
-0.475	-1.408420E-6	6.522248E-8	-6.030291E-7	3.841832E-9
-0.45	-5.125660E-7	1.948735E-8	-5.544345E-7	6.749308E-9
-0.425	-2.480580E-7	8.326855E-9	-5.286266E-7	7.021975E-9
-0.4	-1.505920E-7	2.640865E-9	-5.018676E-7	1.511612E-9
-0.375	-1.232260E-7	3.791666E-9	-4.657682E-7	2.149207E-9
-0.35	-1.132720E-7	1.019260E-8	-4.298741E-7	5.133197E-9
-0.325	-1.419920E-7	2.635464E-9	-4.050286E-7	1.801665E-9
-0.3	-1.418020E-7	4.100819E-9	-3.619825E-7	1.827682E-9
-0.275	-1.696240E-7	9.798098E-9	-3.372615E-7	5.416391E-9
-0.25	-1.783340E-7	8.172872E-9	-3.034572E-7	4.725238E-9
-0.225	-2.054060E-7	1.441229E-8	-2.689346E-7	7.971638E-9
-0.2	-2.179240E-7	8.588509E-9	-2.259199E-7	2.862537E-9
-0.175	-2.568740E-7	6.567395E-9	-2.043729E-7	4.914024E-9
-0.15	-2.799800E-7	9.621515E-9	-1.702212E-7	5.072822E-9
-0.125	-2.893960E-7	6.787413E-9	-1.335051E-7	4.410216E-9
-0.1	-3.289920E-7	1.023040E-8	-1.043407E-7	5.845845E-9
-0.075	-3.656400E-7	9.848515E-9	-8.184195E-8	6.685243E-9
-0.05	-3.611540E-7	2.498826E-9	-3.514727E-8	1.828325E-9
-0.025	-3.981240E-7	8.470521E-9	-6.178051E-9	4.210415E-9
0	-4.031240E-7	6.512143E-10	3.589338E-8	1.284613E-9

		
V_DS = 	-0.600	
Number of Averages = 	5	
Width/um =	4000	
Length/um =	20	
